Time,Sample,Y
0:00.100,36,N
0:00.203,73,/
0:00.878,316,/
0:01.708,615,/
0:02.503,901,/
0:03.300,1188,/
0:04.103,1477,f
0:04.858,1749,f
0:05.728,2062,/
0:06.558,2361,/
0:07.364,2651,/
0:08.172,2942,/
0:08.978,3232,/
0:09.783,3522,f
0:10.544,3796,f
0:11.394,4102,/
0:12.242,4407,/
0:13.067,4704,/
0:13.875,4995,/
0:14.669,5281,/
0:15.469,5569,f
0:16.314,5873,f
0:17.064,6143,/
0:17.919,6451,/
0:18.733,6744,/
0:19.561,7042,/
0:20.367,7332,/
0:20.989,7556,~
0:21.164,7619,f
0:22.003,7921,f
0:22.733,8184,/
0:23.600,8496,/
0:24.347,8765,~
0:24.428,8794,/
0:25.244,9088,/
0:26.050,9378,/
0:26.883,9678,f
0:27.642,9951,f
0:28.422,10232,/
0:29.258,10533,/
0:30.108,10839,/
0:30.931,11135,/
0:31.761,11434,f
0:32.569,11725,f
0:33.444,12040,f
0:34.131,12287,/
0:34.931,12575,/
0:35.792,12885,/
0:36.625,13185,/
0:37.442,13479,/
0:38.286,13783,f
0:39.053,14059,f
0:39.831,14339,/
0:40.603,14617,/
0:41.472,14930,/
0:42.314,15233,/
0:43.125,15525,/
0:43.933,15816,f
0:44.772,16118,f
0:45.528,16390,/
0:46.308,16671,/
0:47.131,16967,/
0:47.983,17274,/
0:48.808,17571,/
0:49.636,17869,/
0:50.475,18171,f
0:51.233,18444,f
0:52.011,18724,/
0:52.800,19008,/
0:53.661,19318,/
0:54.489,19616,/
0:55.306,19910,/
0:56.081,20189,f
0:56.922,20492,f
0:57.789,20804,f
0:58.489,21056,/
0:59.339,21362,/
1:00.189,21668,/
1:00.997,21959,/
1:01.414,22109,~
1:01.803,22249,/
1:02.194,22390,+
1:02.589,22532,Q
1:03.411,22828,Q
1:04.169,23101,Q
1:04.581,23249,+
1:04.994,23398,/
1:05.836,23701,/
1:06.361,23890,~
1:06.661,23998,/
1:07.500,24300,/
1:08.306,24590,/
1:09.103,24877,f
1:09.939,25178,f
1:10.667,25440,/
1:11.519,25747,/
1:12.356,26048,/
1:13.169,26341,/
1:13.983,26634,/
1:14.794,26926,/
1:15.511,27184,N
1:16.358,27489,f
1:17.161,27778,f
1:18.011,28084,/
1:18.833,28380,/
1:19.653,28675,/
1:20.453,28963,/
1:21.250,29250,/
1:21.997,29519,f
1:22.811,29812,f
1:23.733,30144,f
1:24.503,30421,f
1:25.331,30719,/
1:26.144,31012,/
1:26.950,31302,/
1:27.722,31580,/
1:28.503,31861,/
1:29.356,32168,/
1:29.739,32306,+
1:30.125,32445,N
1:30.928,32734,N
1:31.831,33059,f
1:32.589,33332,f
1:32.986,33475,+
1:33.383,33618,/
1:34.156,33896,/
1:34.983,34194,/
1:35.828,34498,/
1:36.650,34794,/
1:37.475,35091,/
1:38.219,35359,N
1:39.058,35661,f
1:39.828,35938,f
1:40.625,36225,/
1:41.469,36529,/
1:42.297,36827,/
1:42.636,36949,~
1:43.119,37123,/
1:43.936,37417,/
1:44.747,37709,/
1:45.492,37977,N
1:46.328,38278,f
1:47.150,38574,/
1:47.978,38872,/
1:48.792,39165,/
1:49.617,39462,/
1:50.428,39754,/
1:51.219,40039,/
1:51.950,40302,N
1:52.797,40607,f
1:53.639,40910,f
1:54.136,41089,~
1:54.472,41210,/
1:55.308,41511,/
1:56.117,41802,/
1:57.044,42136,/
1:57.700,42372,/
1:58.475,42651,/
1:59.311,42952,f
2:00.122,43244,N
2:00.989,43556,f
2:01.786,43843,f
2:02.611,44140,/
2:03.392,44421,/
2:04.161,44698,/
2:05.006,45002,/
2:05.850,45306,/
2:06.667,45600,/
2:07.492,45897,/
2:08.278,46180,f
2:09.044,46456,N
2:09.847,46745,f
2:10.647,47033,f
2:11.500,47340,/
2:12.322,47636,/
2:13.161,47938,/
2:13.978,48232,/
2:14.794,48526,/
2:15.572,48806,/
2:16.347,49085,/
2:17.197,49391,/
2:18.011,49684,f
2:18.706,49934,N
2:19.575,50247,f
2:20.436,50557,f
2:21.167,50820,f
2:21.689,51008,~
2:21.936,51097,f
2:22.761,51394,/
2:23.603,51697,/
2:24.428,51994,/
2:25.264,52295,/
2:25.822,52496,~
2:26.075,52587,/
2:26.875,52875,/
2:27.650,53154,/
2:28.433,53436,/
2:29.275,53739,/
2:30.097,54035,/
2:30.458,54165,+
2:30.819,54295,N
2:31.622,54584,N
2:32.442,54879,N
2:33.258,55173,f
2:34.067,55464,f
2:34.933,55776,f
2:35.694,56050,f
2:36.108,56199,+
2:36.522,56348,/
2:37.344,56644,/
2:37.778,56800,~
2:38.161,56938,/
2:38.961,57226,/
2:39.733,57504,/
2:40.531,57791,/
2:41.372,58094,/
2:42.197,58391,/
2:42.583,58530,+
2:42.969,58669,N
2:43.753,58951,N
2:44.625,59265,f
2:45.378,59536,f
2:45.744,59668,~
2:45.767,59676,+
2:46.156,59816,/
2:47.006,60122,/
2:47.836,60421,/
2:48.353,60607,~
2:48.644,60712,/
2:49.069,60865,~
2:49.475,61011,/
2:50.297,61307,/
2:51.081,61589,/
2:51.542,61755,~
2:51.819,61855,f
2:52.572,62126,N
2:53.494,62458,f
2:54.269,62737,f
2:55.111,63040,/
2:55.925,63333,/
2:56.731,63623,/
2:57.514,63905,/
2:58.300,64188,/
2:59.131,64487,/
2:59.958,64785,/
3:00.336,64921,+
3:00.714,65057,N
3:01.081,65189,~
3:01.486,65335,N
3:02.367,65652,f
3:03.194,65950,f
3:03.903,66205,f
3:04.322,66356,+
3:04.744,66508,/
3:05.578,66808,/
3:06.236,67045,~
3:06.386,67099,/
3:07.217,67398,/
3:08.042,67695,/
3:08.831,67979,/
3:09.611,68260,/
3:10.422,68552,/
3:11.244,68848,/
3:12.031,69131,/
3:12.544,69316,~
3:12.917,69450,/
3:13.269,69577,+
3:13.622,69704,N
3:14.428,69994,N
3:15.219,70279,f
3:16.006,70562,f
3:16.853,70867,f
3:17.694,71170,f
3:18.533,71472,f
3:19.361,71770,f
3:20.203,72073,f
3:21.000,72360,f
3:21.764,72635,f
3:22.594,72934,f
3:23.419,73231,f
3:24.242,73527,f
3:25.083,73830,f
3:25.889,74120,f
3:26.692,74409,f
3:27.444,74680,f
3:27.936,74857,~
3:28.225,74961,Q
3:29.053,75259,Q
3:29.867,75552,f
3:30.483,75774,~
3:30.692,75849,f
3:31.317,76074,~
3:31.517,76146,f
3:32.300,76428,N
3:33.056,76700,N
3:33.800,76968,N
3:34.603,77257,N
3:35.411,77548,N
3:35.711,77656,~
3:36.217,77838,N
3:37.036,78133,N
3:37.847,78425,N
3:38.631,78707,N
3:39.397,78983,N
3:40.167,79260,N
3:40.519,79387,~
3:40.983,79554,N
3:41.792,79845,N
3:42.600,80136,N
3:43.417,80430,N
3:44.225,80721,N
3:44.997,80999,N
3:45.742,81267,N
3:46.536,81553,N
3:47.347,81845,N
3:48.150,82134,N
3:48.675,82323,V
3:49.111,82480,+
3:49.550,82638,/
3:50.367,82932,/
3:51.136,83209,/
3:51.911,83488,/
3:52.742,83787,/
3:53.558,84081,/
3:54.381,84377,/
3:55.214,84677,/
3:56.044,84976,/
3:56.833,85260,/
3:57.600,85536,/
3:58.417,85830,/
3:59.242,86127,/
4:00.064,86423,/
4:00.892,86721,/
4:01.722,87020,f
4:02.528,87310,f
4:03.297,87587,f
4:04.094,87874,f
4:04.919,88171,f
4:05.808,88491,f
4:06.647,88793,f
4:07.458,89085,f
4:08.278,89380,f
4:09.042,89655,f
4:09.797,89927,f
4:10.042,90015,~
4:10.322,90116,~
4:10.619,90223,f
4:11.436,90517,f
4:12.031,90731,~
4:12.242,90807,f
4:13.075,91107,f
4:13.911,91408,f
4:14.703,91693,f
4:15.469,91969,f
4:16.297,92267,f
4:16.964,92507,N
4:17.825,92817,f
4:18.661,93118,f
4:19.489,93416,/
4:19.994,93598,~
4:20.311,93712,/
4:21.094,93994,/
4:21.861,94270,/
4:22.686,94567,/
4:23.503,94861,/
4:24.336,95161,/
4:25.172,95462,/
4:26.011,95764,/
4:26.800,96048,/
4:27.569,96325,/
4:28.392,96621,/
4:29.203,96913,/
4:30.011,97204,/
4:30.847,97505,/
4:31.242,97647,~
4:31.681,97805,/
4:32.481,98093,/
4:33.250,98370,/
4:33.922,98612,~
4:34.058,98661,/
4:34.892,98961,/
4:35.689,99248,/
4:36.394,99502,~
4:36.536,99553,/
4:37.369,99853,/
4:37.733,99984,+
4:38.100,100116,N
4:38.747,100349,N
4:39.511,100624,N
4:40.283,100902,N
4:41.075,101187,N
4:41.883,101478,N
4:42.681,101765,N
4:43.506,102062,N
4:44.300,102348,N
4:45.044,102616,N
4:45.814,102893,N
4:46.600,103176,N
4:47.397,103463,N
4:47.867,103632,~
4:48.197,103751,N
4:49.003,104041,N
4:49.831,104339,N
4:50.589,104612,N
4:51.336,104881,N
4:52.144,105172,N
4:52.914,105449,N
4:53.725,105741,N
4:54.553,106039,N
4:55.358,106329,N
4:56.181,106625,f
4:56.939,106898,f
4:57.708,107175,N
4:58.536,107473,f
4:59.344,107764,f
5:00.158,108057,N
5:01.006,108362,f
5:01.847,108665,f
5:02.619,108943,f
5:03.397,109223,f
5:04.211,109516,f
5:05.025,109809,f
5:05.850,110106,f
5:06.661,110398,f
5:07.506,110702,f
5:08.325,110997,f
5:09.081,111269,Q
5:09.906,111566,Q
5:10.711,111856,Q
5:11.528,112150,Q
5:12.378,112456,f
5:13.211,112756,f
5:14.019,113047,f
5:14.797,113327,Q
5:15.589,113612,Q
5:16.411,113908,Q
5:17.211,114196,Q
5:18.069,114505,Q
5:18.933,114816,Q
5:19.781,115121,Q
5:20.569,115405,Q
5:21.272,115658,Q
5:21.944,115900,+
5:22.097,115955,f
5:22.906,116246,/
5:23.797,116567,/
5:24.556,116840,/
5:25.400,117144,/
5:26.203,117433,/
5:26.972,117710,/
5:27.775,117999,/
5:28.586,118291,/
5:29.394,118582,/
5:30.272,118898,/
5:31.069,119185,/
5:31.908,119487,/
5:32.675,119763,/
5:33.464,120047,/
5:34.281,120341,/
5:35.075,120627,/
5:35.489,120776,~
5:35.903,120925,/
5:36.744,121228,/
5:37.583,121530,/
5:38.081,121709,~
5:38.378,121816,/
5:39.144,122092,/
5:39.964,122387,/
5:40.767,122676,/
5:41.569,122965,/
5:42.400,123264,/
5:43.253,123571,/
5:44.069,123865,/
5:44.847,124145,/
5:45.653,124435,/
5:46.450,124722,/
5:47.256,125012,/
5:48.097,125315,/
5:48.931,125615,/
5:49.772,125918,/
5:50.553,126199,/
5:51.333,126480,/
5:52.147,126773,/
5:52.944,127060,/
5:53.761,127354,/
5:54.603,127657,/
5:55.458,127965,/
5:56.253,128251,f
5:57.022,128528,f
5:57.883,128838,f
5:58.628,129106,f
5:59.006,129242,+
5:59.386,129379,N
6:00.183,129666,N
6:00.972,129950,N
6:01.767,130236,N
6:02.506,130502,N
6:03.250,130770,N
6:04.044,131056,N
6:04.664,131279,~
6:04.806,131330,N
6:05.586,131611,N
6:06.392,131901,N
6:07.225,132201,N
6:08.019,132487,N
6:08.781,132761,N
6:09.575,133047,N
6:10.372,133334,N
6:11.175,133623,f
6:11.994,133918,N
6:12.828,134218,N
6:13.683,134526,f
6:14.464,134807,f
6:14.825,134937,~
6:15.242,135087,f
6:16.072,135386,f
6:16.881,135677,f
6:17.711,135976,f
6:18.567,136284,f
6:19.406,136586,f
6:20.222,136880,f
6:20.997,137159,f
6:21.828,137458,f
6:22.628,137746,f
6:22.992,137877,~
6:23.436,138037,f
6:24.183,138306,f
6:24.706,138494,~
6:25.031,138611,f
6:25.858,138909,f
6:26.636,139189,f
6:27.436,139477,f
6:28.242,139767,f
6:29.036,140053,f
6:29.872,140354,f
6:30.711,140656,f
6:31.556,140960,f
6:32.414,141269,f
6:33.183,141546,f
6:33.981,141833,f
6:34.758,142113,f
6:35.550,142398,f
6:36.375,142695,f
6:37.228,143002,f
6:38.031,143291,f
6:38.783,143562,f
6:39.600,143856,f
6:40.397,144143,f
6:41.203,144433,f
6:42.036,144733,f
6:42.908,145047,f
6:43.742,145347,f
6:44.542,145635,f
6:45.381,145937,f
6:46.103,146197,f
6:46.900,146484,f
6:47.733,146784,f
6:48.153,146935,+
6:48.572,147086,/
6:49.422,147392,/
6:50.214,147677,/
6:50.997,147959,/
6:51.806,148250,/
6:52.592,148533,/
6:53.406,148826,/
6:54.247,149129,/
6:55.103,149437,/
6:55.906,149726,/
6:56.681,150005,/
6:57.503,150301,/
6:58.292,150585,/
6:59.081,150869,/
6:59.906,151166,/
7:00.767,151476,/
7:01.131,151607,+
7:01.497,151739,N
7:02.206,151994,N
7:03.017,152286,f
7:03.822,152576,f
7:04.617,152862,f
7:05.433,153156,f
7:06.267,153456,f
7:07.125,153765,f
7:07.950,154062,f
7:08.744,154348,f
7:09.567,154644,f
7:10.375,154935,f
7:11.114,155201,f
7:11.944,155500,f
7:12.814,155813,f
7:13.231,155963,+
7:13.647,156113,/
7:14.422,156392,/
7:15.242,156687,/
7:16.031,156971,/
7:16.806,157250,/
7:17.628,157546,/
7:18.472,157850,/
7:19.311,158152,/
7:20.108,158439,/
7:20.469,158569,+
7:20.833,158700,N
7:21.628,158986,N
7:22.439,159278,f
7:23.297,159587,f
7:24.175,159903,f
7:24.967,160188,f
7:25.772,160478,f
7:26.164,160619,+
7:26.556,160760,/
7:27.367,161052,/
7:28.153,161335,/
7:28.939,161618,/
7:29.769,161917,/
7:30.628,162226,/
7:31.464,162527,/
7:32.247,162809,/
7:33.058,163101,/
7:33.861,163390,/
7:34.642,163671,/
7:35.361,163930,f
7:36.175,164223,N
7:37.050,164538,f
7:37.861,164830,f
7:38.656,165116,f
7:39.481,165413,f
7:40.283,165702,f
7:41.033,165972,f
7:41.864,166271,f
7:42.725,166581,f
7:43.558,166881,/
7:44.333,167160,/
7:45.153,167455,/
7:45.944,167740,/
7:46.722,168020,/
7:47.542,168315,/
7:48.392,168621,/
7:49.231,168923,/
7:50.031,169211,/
7:50.831,169499,/
7:51.625,169785,/
7:52.406,170066,/
7:53.225,170361,/
7:53.594,170494,+
7:53.967,170628,N
7:54.753,170911,N
7:55.597,171215,f
7:56.386,171499,f
7:57.197,171791,f
7:57.975,172071,f
7:58.764,172355,f
7:59.589,172652,f
8:00.450,172962,f
8:01.289,173264,f
8:02.114,173561,f
8:02.931,173855,f
8:03.736,174145,f
8:04.436,174397,f
8:04.844,174544,+
8:05.253,174691,/
8:06.097,174995,/
8:06.950,175302,/
8:07.756,175592,/
8:08.556,175880,/
8:09.356,176168,/
8:10.131,176447,/
8:10.939,176738,/
8:11.772,177038,/
8:12.631,177347,/
8:13.447,177641,/
8:14.236,177925,/
8:14.597,178055,+
8:14.958,178185,N
8:15.728,178462,N
8:16.503,178741,f
8:17.339,179042,f
8:18.214,179357,f
8:19.075,179667,f
8:19.875,179955,f
8:20.717,180258,f
8:21.450,180522,f
8:22.219,180799,f
8:22.625,180945,+
8:23.031,181091,/
8:23.864,181391,/
8:24.514,181625,~
8:24.711,181696,/
8:25.603,182017,/
8:26.328,182278,/
8:27.125,182565,/
8:27.900,182844,/
8:28.697,183131,/
8:29.528,183430,/
8:30.389,183740,/
8:30.758,183873,+
8:31.128,184006,N
8:31.889,184280,N
8:32.739,184586,f
8:33.536,184873,f
8:34.331,185159,f
8:35.144,185452,f
8:35.694,185650,~
8:36.028,185770,f
8:36.797,186047,f
8:37.611,186340,f
8:38.019,186487,+
8:38.428,186634,/
8:39.222,186920,/
8:39.997,187199,/
8:40.803,187489,/
8:41.631,187787,/
8:42.483,188094,/
8:43.303,188389,/
8:44.103,188677,/
8:44.914,188969,/
8:45.683,189246,/
8:46.469,189529,/
8:47.278,189820,f
8:47.992,190077,N
8:48.856,190388,f
8:49.700,190692,f
8:50.539,190994,f
8:51.342,191283,f
8:52.131,191567,f
8:52.864,191831,f
8:53.700,192132,f
8:54.556,192440,/
8:55.372,192734,/
8:56.181,193025,/
8:56.992,193317,/
8:57.756,193592,/
8:58.553,193879,/
8:59.381,194177,/
9:00.242,194487,/
9:01.067,194784,/
9:01.433,194916,+
9:01.800,195048,N
9:02.625,195345,N
9:03.447,195641,f
9:04.250,195930,f
9:05.006,196202,f
9:05.858,196509,f
9:06.278,196660,+
9:06.697,196811,/
9:07.508,197103,/
9:08.333,197400,/
9:09.125,197685,/
9:09.894,197962,/
9:10.697,198251,/
9:11.525,198549,/
9:12.378,198856,/
9:13.206,199154,/
9:13.931,199415,N
9:14.750,199710,f
9:15.556,200000,f
9:16.372,200294,f
9:17.217,200598,f
9:18.006,200882,f
9:18.833,201180,f
9:19.642,201471,/
9:20.475,201771,/
9:21.256,202052,/
9:22.014,202325,/
9:22.814,202613,/
9:23.661,202918,/
9:24.506,203222,/
9:25.319,203515,/
9:26.150,203814,/
9:26.517,203946,+
9:26.883,204078,N
9:27.608,204339,N
9:28.431,204635,f
9:29.303,204949,f
9:30.167,205260,f
9:30.922,205532,f
9:31.742,205827,f
9:32.150,205974,+
9:32.561,206122,/
9:33.333,206400,/
9:34.122,206684,/
9:34.931,206975,/
9:35.786,207283,/
9:36.622,207584,/
9:37.428,207874,/
9:38.264,208175,/
9:39.056,208460,/
9:39.808,208731,/
9:40.178,208864,+
9:40.547,208997,N
9:41.339,209282,N
9:42.217,209598,f
9:43.053,209899,f
9:43.936,210217,f
9:44.675,210483,f
9:45.444,210760,f
9:45.842,210903,+
9:46.242,211047,/
9:47.050,211338,/
9:47.900,211644,/
9:48.725,211941,/
9:49.542,212235,/
9:50.367,212532,/
9:51.139,212810,/
9:51.911,213088,/
9:52.708,213375,/
9:53.108,213519,+
9:53.511,213664,N
9:54.308,213951,N
9:55.189,214268,f
9:56.075,214587,f
9:56.797,214847,f
9:57.561,215122,f
9:57.956,215264,+
9:58.350,215406,/
9:59.172,215702,/
10:00.025,216009,/
10:00.850,216306,/
10:01.678,216604,/
10:02.489,216896,/
10:03.253,217171,/
10:03.628,217306,+
10:04.006,217442,N
10:04.758,217713,N
10:05.683,218046,f
10:06.547,218357,f
10:07.289,218624,f
10:07.711,218776,+
10:08.133,218928,/
10:08.911,219208,/
10:09.681,219485,/
10:10.469,219769,/
10:11.308,220071,/
10:12.156,220376,/
10:12.969,220669,/
10:13.817,220974,/
10:14.600,221256,f
10:15.386,221539,f
10:16.222,221840,f
10:16.983,222114,f
10:17.833,222420,/
10:18.661,222718,/
10:19.497,223019,/
10:20.319,223315,/
10:21.089,223592,/
10:21.875,223875,/
10:22.672,224162,/
10:23.525,224469,/
10:24.289,224744,N
10:25.111,225040,f
10:26.000,225360,f
10:26.839,225662,f
10:27.531,225911,f
10:28.325,226197,/
10:29.156,226496,/
10:29.994,226798,/
10:30.817,227094,/
10:31.667,227400,/
10:32.469,227689,/
10:33.242,227967,/
10:34.025,228249,/
10:34.825,228537,/
10:35.225,228681,+
10:35.628,228826,N
10:36.436,229117,N
10:37.294,229426,f
10:38.175,229743,f
10:38.900,230004,f
10:39.675,230283,f
10:40.075,230427,+
10:40.478,230572,/
10:41.322,230876,/
10:42.158,231177,/
10:42.978,231472,/
10:43.828,231778,/
10:44.617,232062,/
10:45.369,232333,/
10:46.153,232615,/
10:46.978,232912,/
10:47.372,233054,+
10:47.769,233197,N
10:48.564,233483,N
10:49.456,233804,f
10:50.317,234114,f
10:51.031,234371,f
10:51.425,234513,+
10:51.819,234655,/
10:52.619,234943,/
10:53.453,235243,/
10:54.283,235542,/
10:55.122,235844,/
10:55.944,236140,/
10:56.725,236421,/
10:57.511,236704,/
10:58.297,236987,/
10:59.108,237279,f
10:59.956,237584,f
11:00.822,237896,f
11:01.644,238192,f
11:02.444,238480,/
11:03.200,238752,/
11:03.986,239035,/
11:04.811,239332,/
11:05.639,239630,/
11:06.458,239925,/
11:07.322,240236,/
11:08.139,240530,/
11:08.883,240798,f
11:09.669,241081,f
11:10.531,241391,f
11:11.303,241669,f
11:12.128,241966,/
11:12.978,242272,/
11:13.814,242573,/
11:14.589,242852,/
11:15.378,243136,/
11:16.167,243420,/
11:16.994,243718,/
11:17.825,244017,/
11:18.597,244295,N
11:19.478,244612,f
11:20.344,244924,f
11:21.044,245176,f
11:21.831,245459,/
11:22.656,245756,/
11:23.489,246056,/
11:24.308,246351,/
11:25.178,246664,/
11:25.994,246958,/
11:26.756,247232,/
11:27.536,247513,/
11:28.269,247777,N
11:29.119,248083,f
11:30.022,248408,f
11:30.789,248684,f
11:31.628,248986,/
11:32.411,249268,/
11:33.197,249551,/
11:33.989,249836,/
11:34.819,250135,/
11:35.639,250430,/
11:36.461,250726,/
11:37.325,251037,/
11:38.119,251323,f
11:38.806,251570,N
11:39.653,251875,f
11:40.425,252153,f
11:41.250,252450,f
11:42.075,252747,/
11:42.931,253055,/
11:43.767,253356,/
11:44.544,253636,/
11:45.328,253918,/
11:46.122,254204,/
11:46.947,254501,/
11:47.761,254794,/
11:48.583,255090,f
11:49.464,255407,f
11:50.300,255708,f
11:51.022,255968,f
11:51.814,256253,/
11:52.625,256545,/
11:53.444,256840,/
11:54.267,257136,/
11:55.136,257449,/
11:55.953,257743,/
11:56.717,258018,/
11:57.489,258296,f
11:58.314,258593,f
11:59.119,258883,f
11:59.944,259180,/
12:00.811,259492,/
12:01.639,259790,/
12:02.422,260072,/
12:03.203,260353,/
12:03.983,260634,/
12:04.808,260931,/
12:05.625,261225,f
12:06.344,261484,N
12:07.244,261808,/
12:08.042,262095,/
12:08.819,262375,/
12:09.608,262659,/
12:10.422,262952,/
12:11.231,263243,/
12:12.053,263539,/
12:12.917,263850,f
12:13.714,264137,f
12:14.539,264434,f
12:15.278,264700,f
12:16.089,264992,/
12:16.903,265285,/
12:17.717,265578,/
12:18.581,265889,/
12:19.425,266193,/
12:20.214,266477,/
12:20.997,266759,/
12:21.783,267042,/
12:22.572,267326,f
12:23.386,267619,f
12:24.286,267943,f
12:25.094,268234,f
12:25.892,268521,f
12:26.686,268807,/
12:27.469,269089,/
12:28.286,269383,/
12:29.089,269672,/
12:29.906,269966,/
12:30.786,270283,/
12:31.606,270578,/
12:32.378,270856,/
12:33.075,271107,N
12:33.903,271405,f
12:34.728,271702,f
12:35.575,272007,f
12:36.383,272298,f
12:37.219,272599,f
12:38.019,272887,/
12:38.803,273169,/
12:39.583,273450,/
12:40.394,273742,/
12:41.208,274035,/
12:42.050,274338,/
12:42.906,274646,/
12:43.714,274937,/
12:44.444,275200,N
12:45.250,275490,f
12:46.125,275805,f
12:46.869,276073,f
12:47.689,276368,/
12:48.558,276681,/
12:49.381,276977,/
12:50.161,277258,/
12:50.944,277540,/
12:51.747,277829,/
12:52.547,278117,/
12:53.347,278405,f
12:54.214,278717,f
12:55.122,279044,f
12:55.858,279309,/
12:56.653,279595,/
12:57.439,279878,/
12:58.236,280165,/
12:59.036,280453,/
12:59.878,280756,/
13:00.733,281064,/
13:01.544,281356,f
13:02.347,281645,f
13:03.133,281928,f
13:03.947,282221,/
13:04.744,282508,/
13:05.553,282799,/
13:06.433,283116,/
13:07.267,283416,/
13:08.042,283695,/
13:08.828,283978,/
13:09.633,284268,f
13:10.433,284556,f
13:11.222,284840,f
13:12.103,285157,/
13:12.947,285461,/
13:13.753,285751,/
13:14.542,286035,/
13:15.328,286318,/
13:16.128,286606,/
13:16.919,286891,/
13:17.753,287191,f
13:18.644,287512,f
13:19.422,287792,f
13:20.233,288084,/
13:21.019,288367,/
13:21.819,288655,/
13:22.611,288940,/
13:23.422,289232,/
13:24.297,289547,/
13:25.128,289846,/
13:25.886,290119,N
13:26.686,290407,f
13:27.550,290718,f
13:28.303,290989,f
13:29.097,291275,/
13:29.969,291589,/
13:30.817,291894,/
13:31.611,292180,/
13:32.397,292463,/
13:33.186,292747,/
13:33.981,293033,/
13:34.700,293292,N
13:35.578,293608,f
13:36.492,293937,f
13:37.236,294205,f
13:38.058,294501,/
13:38.842,294783,/
13:39.644,295072,/
13:40.425,295353,/
13:41.231,295643,/
13:42.100,295956,/
13:42.925,296253,/
13:43.669,296521,N
13:44.506,296822,f
13:45.297,297107,f
13:46.092,297393,/
13:46.878,297676,/
13:47.744,297988,/
13:48.597,298295,/
13:49.400,298584,/
13:50.192,298869,/
13:50.992,299157,/
13:51.758,299433,f
13:52.583,299730,f
13:53.400,300024,f
13:54.261,300334,/
13:55.078,300628,/
13:55.894,300922,/
13:56.686,301207,/
13:57.483,301494,/
13:58.261,301774,/
13:59.075,302067,f
13:59.950,302382,f
14:00.750,302670,f
14:01.575,302967,/
14:02.364,303251,/
14:03.175,303543,/
14:03.958,303825,/
14:04.744,304108,/
14:05.611,304420,/
14:06.456,304724,f
14:07.325,305037,f
14:08.058,305301,/
14:08.864,305591,/
14:09.658,305877,/
14:10.439,306158,/
14:11.278,306460,/
14:12.131,306767,/
14:12.953,307063,f
14:13.778,307360,f
14:14.550,307638,f
14:15.356,307928,/
14:16.131,308207,/
14:16.939,308498,/
14:17.794,308806,/
14:18.614,309101,/
14:19.447,309401,/
14:20.228,309682,f
14:21.067,309984,f
14:21.836,310261,f
14:22.622,310544,/
14:23.483,310854,/
14:24.322,311156,/
14:25.133,311448,/
14:25.936,311737,/
14:26.744,312028,/
14:27.494,312298,N
14:28.292,312585,f
14:29.217,312918,f
14:29.994,313198,/
14:30.811,313492,/
14:31.642,313791,/
14:32.439,314078,/
14:33.236,314365,/
14:34.008,314643,/
14:34.817,314934,/
14:35.650,315234,f
14:36.514,315545,f
14:37.314,315833,f
14:38.125,316125,/
14:38.936,316417,/
14:39.708,316695,/
14:40.486,316975,/
14:41.350,317286,/
14:42.186,317587,/
14:42.978,317872,f
14:43.800,318168,f
14:44.678,318484,f
14:45.411,318748,/
14:46.186,319027,/
14:47.017,319326,/
14:47.864,319631,/
14:48.686,319927,/
14:49.503,320221,/
14:50.306,320510,/
14:51.122,320804,f
14:51.939,321098,f
14:52.689,321368,/
14:53.539,321674,/
14:54.358,321969,/
14:55.192,322269,/
14:56.003,322561,/
14:56.808,322851,/
14:57.592,323133,f
14:58.406,323426,f
14:59.206,323714,/
15:00.033,324012,/
15:00.853,324307,/
15:01.675,324603,/
15:02.497,324899,/
15:03.275,325179,/
15:04.081,325469,f
15:04.914,325769,f
15:05.719,326059,f
15:06.539,326354,/
15:07.361,326650,/
15:08.181,326945,/
15:08.978,327232,/
15:09.744,327508,/
15:10.581,327809,f
15:11.431,328115,f
15:12.214,328397,f
15:13.050,328698,/
15:13.864,328991,/
15:14.675,329283,/
15:15.442,329559,/
15:16.233,329844,/
15:17.083,330150,f
15:17.942,330459,f
15:18.722,330740,f
15:19.550,331038,/
15:20.367,331332,/
15:21.144,331612,/
15:21.911,331888,/
15:22.747,332189,/
15:23.569,332485,f
15:24.389,332780,f
15:25.208,333075,f
15:25.994,333358,V
15:26.819,333655,/
15:27.592,333933,/
15:28.411,334228,/
15:29.236,334525,/
15:30.033,334812,f
15:30.872,335114,f
15:31.772,335438,f
15:32.522,335708,/
15:33.294,335986,/
15:34.081,336269,/
15:34.911,336568,/
15:35.728,336862,/
15:36.561,337162,/
15:37.369,337453,f
15:38.214,337757,f
15:39.047,338057,f
15:39.764,338315,f
15:40.594,338614,/
15:41.411,338908,/
15:42.233,339204,/
15:43.061,339502,/
15:43.897,339803,/
15:44.689,340088,/
15:45.456,340364,f
15:46.325,340677,f
15:47.103,340957,/
15:47.925,341253,/
15:48.761,341554,/
15:49.594,341854,/
15:50.403,342145,/
15:51.172,342422,/
15:51.969,342709,/
15:52.781,343001,f
15:53.650,343314,f
15:54.444,343600,f
15:55.278,343900,/
15:56.111,344200,/
15:56.886,344479,/
15:57.653,344755,/
15:58.489,345056,/
15:59.308,345351,f
16:00.128,345646,f
16:00.956,345944,f
16:01.797,346247,/
16:02.583,346530,/
16:03.350,346806,/
16:04.172,347102,/
16:04.986,347395,/
16:05.803,347689,/
16:06.650,347994,f
16:07.461,348286,f
16:08.281,348581,/
16:09.058,348861,/
16:09.850,349146,/
16:10.667,349440,/
16:11.483,349734,/
16:12.319,350035,f
16:13.156,350336,f
16:13.989,350636,f
16:14.767,350916,/
16:15.544,351196,/
16:16.361,351490,/
16:17.164,351779,/
16:17.986,352075,/
16:18.817,352374,f
16:19.656,352676,f
16:20.456,352964,f
16:21.219,353239,/
16:22.044,353536,/
16:22.853,353827,/
16:23.653,354115,/
16:24.489,354416,/
16:25.342,354723,/
16:26.092,354993,N
16:26.900,355284,f
16:27.697,355571,f
16:28.503,355861,/
16:29.314,356153,/
16:30.156,356456,/
16:30.986,356755,/
16:31.825,357057,/
16:32.603,357337,/
16:33.383,357618,f
16:34.167,357900,N
16:35.003,358201,f
16:35.903,358525,f
16:36.669,358801,/
16:37.519,359107,/
16:38.303,359389,/
16:39.072,359666,/
16:39.894,359962,/
16:40.686,360247,/
16:41.494,360538,/
16:42.250,360810,N
16:43.144,361132,f
16:43.947,361421,f
16:44.719,361699,/
16:45.533,361992,/
16:46.336,362281,/
16:47.128,362566,/
16:47.961,362866,/
16:48.803,363169,/
16:49.614,363461,f
16:50.422,363752,f
16:51.283,364062,f
16:52.017,364326,/
16:52.814,364613,/
16:53.647,364913,/
16:54.486,365215,/
16:55.347,365525,/
16:56.147,365813,/
16:56.914,366089,f
16:57.728,366382,f
16:58.517,366666,f
16:59.314,366953,/
17:00.158,367257,/
17:01.011,367564,/
17:01.825,367857,/
17:02.603,368137,/
17:03.419,368431,/
17:04.222,368720,f
17:04.997,368999,f
17:05.833,369300,/
17:06.683,369606,/
17:07.519,369907,/
17:08.308,370191,/
17:09.103,370477,/
17:09.903,370765,/
17:10.703,371053,f
17:11.519,371347,f
17:12.367,371652,/
17:13.217,371958,/
17:14.014,372245,/
17:14.794,372526,/
17:15.608,372819,/
17:16.400,373104,/
17:17.208,373395,f
17:18.108,373719,f
17:18.903,374005,/
17:19.717,374298,/
17:20.489,374576,/
17:21.314,374873,/
17:22.106,375158,/
17:22.886,375439,/
17:23.678,375724,N
17:24.564,376043,f
17:25.389,376340,f
17:26.186,376627,/
17:26.994,376918,/
17:27.789,377204,/
17:28.578,377488,/
17:29.403,377785,/
17:30.239,378086,/
17:31.050,378378,N
17:31.869,378673,f
17:32.725,378981,f
17:33.481,379253,/
17:34.253,379531,/
17:35.061,379822,/
17:35.897,380123,/
17:36.761,380434,/
17:37.583,380730,/
17:38.364,381011,/
17:39.128,381286,N
17:39.981,381593,f
17:40.719,381859,f
17:41.544,382156,/
17:42.406,382466,/
17:43.239,382766,/
17:44.025,383049,/
17:44.842,383343,/
17:45.633,383628,/
17:46.364,383891,N
17:47.206,384194,f
17:48.122,384524,f
17:48.903,384805,/
17:49.714,385097,/
17:50.517,385386,/
17:51.314,385673,/
17:52.094,385954,/
17:52.908,386247,/
17:53.739,386546,f
17:54.614,386861,f
17:55.408,387147,f
17:56.200,387432,/
17:57.017,387726,/
17:57.797,388007,/
17:58.572,388286,/
17:59.400,388584,/
18:00.264,388895,/
18:01.108,389199,f
18:01.889,389480,f
18:02.719,389779,/
18:03.508,390063,/
18:04.275,390339,/
18:05.075,390627,/
18:05.925,390933,/
18:06.772,391238,f
18:07.589,391532,f
18:08.389,391820,f
18:09.186,392107,/
18:09.958,392385,/
18:10.767,392676,/
18:11.594,392974,/
18:12.450,393282,/
18:13.283,393582,f
18:14.136,393889,f
18:14.889,394160,/
18:15.664,394439,/
18:16.453,394723,/
18:17.269,395017,/
18:18.142,395331,/
18:18.969,395629,/
18:19.753,395911,f
18:20.617,396222,f
18:21.372,396494,f
18:22.136,396769,/
18:22.947,397061,/
18:23.797,397367,/
18:24.639,397670,/
18:25.456,397964,/
18:26.283,398262,/
18:27.081,398549,f
18:27.889,398840,f
18:28.633,399108,/
18:29.464,399407,/
18:30.317,399714,/
18:31.136,400009,/
18:31.961,400306,/
18:32.767,400596,/
18:33.539,400874,/
18:34.303,401149,N
18:35.167,401460,f
18:36.011,401764,f
18:36.844,402064,/
18:37.647,402353,/
18:38.475,402651,/
18:39.261,402934,/
18:40.022,403208,/
18:40.822,403496,/
18:41.683,403806,/
18:42.475,404091,N
18:43.325,404397,f
18:44.164,404699,f
18:44.958,404985,/
18:45.719,405259,/
18:46.514,405545,/
18:47.342,405843,/
18:48.186,406147,/
18:49.006,406442,/
18:49.836,406741,/
18:50.639,407030,f
18:51.464,407327,f
18:52.200,407592,/
18:53.011,407884,/
18:53.872,408194,/
18:54.697,408491,/
18:55.522,408788,/
18:56.347,409085,/
18:57.111,409360,f
18:57.881,409637,f
18:58.689,409928,f
18:59.550,410238,/
19:00.389,410540,/
19:01.200,410832,/
19:02.044,411136,/
19:02.836,411421,/
19:03.589,411692,/
19:04.403,411985,f
19:05.283,412302,f
19:06.058,412581,/
19:06.872,412874,/
19:07.725,413181,/
19:08.525,413469,/
19:09.289,413744,/
19:10.078,414028,/
19:10.914,414329,f
19:11.722,414620,f
19:12.556,414920,/
19:13.389,415220,/
19:14.206,415514,/
19:14.981,415793,/
19:15.769,416077,/
19:16.581,416369,f
19:17.417,416670,f
19:18.244,416968,f
19:19.069,417265,/
19:19.917,417570,/
19:20.700,417852,/
19:21.464,418127,/
19:22.256,418412,/
19:23.075,418707,f
19:23.906,419006,f
19:24.733,419304,f
19:25.603,419617,/
19:26.406,419906,/
19:27.164,420179,/
19:27.942,420459,/
19:28.764,420755,/
19:29.597,421055,/
19:30.372,421334,N
19:31.272,421658,f
19:32.139,421970,f
19:32.850,422226,f
19:33.642,422511,/
19:34.428,422794,/
19:35.264,423095,/
19:36.100,423396,/
19:36.931,423695,/
19:37.769,423997,/
19:38.503,424261,N
19:39.328,424558,f
19:40.097,424835,f
19:40.942,425139,/
19:41.769,425437,/
19:42.589,425732,/
19:43.456,426044,/
19:44.247,426329,/
19:45.006,426602,/
19:45.756,426872,N
19:46.608,427179,f
19:47.425,427473,f
19:48.256,427772,/
19:49.111,428080,f
19:49.936,428377,/
19:50.708,428655,/
19:51.492,428937,/
19:52.289,429224,/
19:53.117,429522,f
19:53.947,429821,f
19:54.783,430122,f
19:55.628,430426,/
19:56.406,430706,/
19:57.194,430990,/
19:57.983,431274,/
19:58.808,431571,/
19:59.633,431868,/
20:00.500,432180,f
20:01.317,432474,f
20:02.131,432767,/
20:02.892,433041,/
20:03.675,433323,/
20:04.494,433618,/
20:05.311,433912,/
20:06.147,434213,f
20:07.047,434537,f
20:07.828,434818,/
20:08.597,435095,/
20:09.375,435375,/
20:10.169,435661,/
20:10.989,435956,/
20:11.811,436252,/
20:12.692,436569,f
20:13.506,436862,f
20:14.303,437149,/
20:15.086,437431,/
20:15.869,437713,/
20:16.689,438008,/
20:17.503,438301,/
20:18.342,438603,/
20:19.225,438921,f
20:19.989,439196,f
20:20.775,439479,/
20:21.556,439760,/
20:22.375,440055,/
20:23.192,440349,/
20:24.011,440644,/
20:24.883,440958,f
20:25.706,441254,f
20:26.467,441528,f
20:27.247,441809,/
20:28.058,442101,/
20:28.861,442390,/
20:29.675,442683,/
20:30.547,442997,/
20:31.381,443297,/
20:32.117,443562,N
20:32.975,443871,f
20:33.717,444138,f
20:34.531,444431,/
20:35.344,444724,/
20:36.194,445030,/
20:37.044,445336,/
20:37.850,445626,/
20:38.642,445911,/
20:39.386,446179,N
20:40.233,446484,f
20:41.019,446767,f
20:41.850,447066,/
20:42.719,447379,/
20:43.536,447673,/
20:44.322,447956,/
20:45.106,448238,/
20:45.911,448528,/
20:46.711,448816,/
20:47.514,449105,f
20:48.447,449441,f
20:49.231,449723,f
20:50.017,450006,/
20:50.797,450287,/
20:51.597,450575,/
20:52.386,450859,/
20:53.186,451147,/
20:54.058,451461,/
20:54.869,451753,N
20:55.719,452059,f
20:56.497,452339,f
20:57.283,452622,/
20:58.086,452911,/
20:58.889,453200,/
20:59.722,453500,/
21:00.581,453809,/
21:01.397,454103,/
21:02.203,454393,f
21:03.036,454693,f
21:03.794,454966,/
21:04.581,455249,/
21:05.394,455542,/
21:06.272,455858,/
21:07.094,456154,/
21:07.889,456440,/
21:08.678,456724,f
21:09.506,457022,f
21:10.272,457298,/
21:11.067,457584,/
21:11.939,457898,/
21:12.775,458199,/
21:13.575,458487,/
21:14.367,458772,/
21:15.172,459062,f
21:15.994,459358,f
21:16.747,459629,/
21:17.600,459936,/
21:18.453,460243,/
21:19.275,460539,/
21:20.092,460833,/
21:20.875,461115,/
21:21.692,461409,f
21:22.456,461684,f
21:23.272,461978,/
21:24.147,462293,/
21:24.972,462590,/
21:25.775,462879,/
21:26.567,463164,/
21:27.378,463456,/
21:28.161,463738,f
21:28.947,464021,f
21:29.833,464340,/
21:30.672,464642,/
21:31.475,464931,/
21:32.269,465217,/
21:33.064,465503,/
21:33.856,465788,/
21:34.586,466051,N
21:35.511,466384,f
21:36.319,466675,f
21:37.142,466971,/
21:37.953,467263,/
21:38.742,467547,/
21:39.536,467833,/
21:40.322,468116,/
21:41.144,468412,/
21:41.939,468698,N
21:42.800,469008,f
21:43.611,469300,f
21:44.408,469587,/
21:45.217,469878,/
21:45.997,470159,/
21:46.786,470443,/
21:47.653,470755,/
21:48.483,471054,/
21:49.283,471342,/
21:50.028,471610,N
21:50.908,471927,f
21:51.650,472194,f
21:52.431,472475,/
21:53.289,472784,/
21:54.125,473085,/
21:54.939,473378,/
21:55.750,473670,/
21:56.553,473959,/
21:57.308,474231,N
21:58.094,474514,f
21:58.933,474816,f
21:59.786,475123,/
22:00.614,475421,/
22:01.444,475720,/
22:02.244,476008,/
22:03.047,476297,/
22:03.819,476575,/
22:04.611,476860,f
22:05.497,477179,f
22:06.294,477466,/
22:07.122,477764,/
22:07.931,478055,/
22:08.742,478347,/
22:09.519,478627,/
22:10.292,478905,/
22:11.150,479214,f
22:11.978,479512,f
22:12.789,479804,f
22:13.617,480102,/
22:14.433,480396,/
22:15.211,480676,/
22:15.983,480954,/
22:16.825,481257,/
22:17.658,481557,/
22:18.506,481862,f
22:19.294,482146,f
22:20.108,482439,/
22:20.908,482727,/
22:21.683,483006,/
22:22.489,483296,/
22:23.331,483599,/
22:24.181,483905,f
22:25.022,484208,f
22:25.811,484492,f
22:26.625,484785,/
22:27.397,485063,/
22:28.183,485346,/
22:29.017,485646,/
22:29.836,485941,/
22:30.678,486244,f
22:31.483,486534,f
22:32.308,486831,/
22:33.092,487113,/
22:33.858,487389,/
22:34.697,487691,/
22:35.525,487989,/
22:36.339,488282,/
22:37.147,488573,f
22:38.044,488896,f
22:38.792,489165,/
22:39.564,489443,/
22:40.383,489738,/
22:41.208,490035,/
22:42.033,490332,/
22:42.869,490633,/
22:43.622,490904,N
22:44.475,491211,f
22:45.233,491484,f
22:46.025,491769,/
22:46.864,492071,/
22:47.678,492364,/
22:48.514,492665,/
22:49.347,492965,/
22:50.175,493263,/
22:50.947,493541,/
22:51.661,493798,N
22:52.539,494114,f
22:53.347,494405,f
22:54.167,494700,/
22:54.997,494999,/
22:55.828,495298,/
22:56.625,495585,/
22:57.389,495860,/
22:58.214,496157,/
22:59.036,496453,/
22:59.792,496725,N
23:00.686,497047,f
23:01.489,497336,f
23:02.303,497629,/
23:03.081,497909,/
23:03.872,498194,/
23:04.683,498486,/
23:05.500,498780,/
23:06.342,499083,/
23:07.153,499375,f
23:08.003,499681,f
23:08.844,499984,f
23:09.558,500241,/
23:10.381,500537,/
23:11.189,500828,/
23:12.008,501123,/
23:12.850,501426,/
23:13.694,501730,/
23:14.478,502012,/
23:15.256,502292,f
23:16.128,502606,f
23:16.867,502872,/
23:17.675,503163,/
23:18.511,503464,/
23:19.364,503771,/
23:20.175,504063,/
23:20.944,504340,/
23:21.761,504634,f
23:22.608,504939,f
23:23.369,505213,/
23:24.203,505513,/
23:25.044,505816,/
23:25.869,506113,/
23:26.644,506392,/
23:27.439,506678,/
23:28.242,506967,f
23:29.047,507257,f
23:29.883,507558,f
23:30.719,507859,/
23:31.572,508166,/
23:32.350,508446,/
23:33.125,508725,/
23:33.947,509021,/
23:34.736,509305,/
23:35.553,509599,f
23:36.450,509922,f
23:37.244,510208,/
23:38.042,510495,/
23:38.814,510773,/
23:39.636,511069,/
23:40.425,511353,/
23:41.222,511640,/
23:42.050,511938,f
23:42.908,512247,f
23:43.733,512544,f
23:44.517,512826,/
23:45.322,513116,/
23:46.128,513406,/
23:46.917,513690,/
23:47.744,513988,/
23:48.589,514292,/
23:49.369,514573,N
23:50.222,514880,f
23:50.986,515155,/
23:51.786,515443,/
23:52.569,515725,/
23:53.397,516023,/
23:54.236,516325,/
23:55.092,516633,/
23:55.897,516923,/
23:56.661,517198,f
23:57.419,517471,N
23:58.272,517778,f
23:59.022,518048,f
23:59.858,518349,/
24:00.725,518661,/
24:01.547,518957,/
24:02.331,519239,/
24:03.147,519533,/
24:03.939,519818,/
24:04.703,520093,f
24:05.531,520391,f
24:06.453,520723,f
24:07.242,521007,f
24:08.039,521294,/
24:08.839,521582,/
24:09.642,521871,/
24:10.419,522151,/
24:11.239,522446,/
24:12.083,522750,/
24:12.944,523060,f
24:13.806,523370,f
24:14.531,523631,/
24:15.344,523924,/
24:16.125,524205,/
24:16.925,524493,/
24:17.756,524792,/
24:18.619,525103,/
24:19.433,525396,f
24:20.250,525690,f
24:21.039,525974,f
24:21.828,526258,/
24:22.600,526536,/
24:23.419,526831,/
24:24.281,527141,/
24:25.117,527442,/
24:25.922,527732,f
24:26.714,528017,f
24:27.594,528334,f
24:28.306,528590,/
24:29.111,528880,/
24:29.953,529183,/
24:30.811,529492,/
24:31.619,529783,/
24:32.417,530070,/
24:33.214,530357,f
24:34.036,530653,f
24:34.794,530926,/
24:35.631,531227,/
24:36.483,531534,/
24:37.300,531828,/
24:38.108,532119,/
24:38.914,532409,/
24:39.669,532681,f
24:40.469,532969,f
24:41.289,533264,f
24:42.161,533578,/
24:42.989,533876,/
24:43.783,534162,/
24:44.606,534458,/
24:45.392,534741,/
24:46.158,535017,/
24:46.911,535288,N
24:47.844,535624,f
24:48.644,535912,f
24:49.456,536204,/
24:50.286,536503,/
24:51.078,536788,/
24:51.847,537065,/
24:52.639,537350,/
24:53.469,537649,/
24:54.242,537927,N
24:55.111,538240,f
24:55.892,538521,f
24:56.708,538815,/
24:57.481,539093,/
24:58.272,539378,/
24:59.092,539673,/
24:59.947,539981,/
25:00.772,540278,/
25:01.156,540416,+
25:01.539,540554,N
25:02.364,540851,N
25:03.203,541153,f
25:03.936,541417,f
25:04.333,541560,+
25:04.733,541704,/
25:05.586,542011,/
25:06.431,542315,/
25:07.242,542607,/
25:08.086,542911,/
25:08.875,543195,/
25:09.606,543458,N
25:10.453,543763,f
25:11.258,544053,f
25:12.111,544360,/
25:12.933,544656,/
25:13.769,544957,/
25:14.572,545246,/
25:15.336,545521,/
25:16.128,545806,/
25:16.931,546095,f
25:17.839,546422,f
25:18.611,546700,/
25:19.439,546998,/
25:20.261,547294,/
25:21.031,547571,/
25:21.817,547854,/
25:22.625,548145,/
25:23.508,548463,f
25:24.358,548769,f
25:25.122,549044,/
25:25.967,549348,/
25:26.753,549631,/
25:27.517,549906,/
25:28.300,550188,/
25:29.142,550491,/
25:30.022,550808,f
25:30.797,551087,f
25:31.658,551397,/
25:32.467,551688,/
25:33.225,551961,/
25:34.008,552243,/
25:34.828,552538,/
25:35.672,552842,f
25:36.547,553157,f
25:37.339,553442,/
25:38.156,553736,/
25:38.928,554014,/
25:39.717,554298,/
25:40.508,554583,/
25:41.353,554887,/
25:42.175,555183,f
25:43.067,555504,f
25:43.853,555787,/
25:44.631,556067,/
25:45.408,556347,/
25:46.197,556631,/
25:47.033,556932,/
25:47.864,557231,/
25:48.647,557513,N
25:49.556,557840,f
25:50.339,558122,/
25:51.103,558397,/
25:51.875,558675,/
25:52.697,558971,/
25:53.542,559275,/
25:54.361,559570,/
25:55.219,559879,/
25:55.981,560153,N
25:56.803,560449,f
25:57.556,560720,f
25:58.356,561008,/
25:59.178,561304,/
26:00.006,561602,/
26:00.853,561907,/
26:01.681,562205,/
26:02.461,562486,/
26:03.253,562771,/
26:03.969,563029,N
26:04.836,563341,f
26:05.644,563632,f
26:06.472,563930,/
26:07.331,564239,/
26:08.131,564527,/
26:08.906,564806,/
26:09.689,565088,/
26:10.511,565384,/
26:11.328,565678,/
26:12.086,565951,N
26:13.025,566289,f
26:13.814,566573,f
26:14.578,566848,/
26:15.353,567127,/
26:16.164,567419,/
26:16.981,567713,/
26:17.794,568006,/
26:18.661,568318,/
26:19.500,568620,f
26:20.292,568905,f
26:21.058,569181,f
26:21.850,569466,/
26:22.656,569756,/
26:23.469,570049,/
26:24.319,570355,/
26:25.161,570658,/
26:25.961,570946,/
26:26.739,571226,f
26:27.547,571517,f
26:28.350,571806,f
26:29.167,572100,/
26:29.992,572397,/
26:30.861,572710,/
26:31.672,573002,/
26:32.450,573282,/
26:33.233,573564,/
26:34.044,573856,f
26:34.919,574171,f
26:35.669,574441,/
26:36.547,574757,/
26:37.372,575054,/
26:38.150,575334,/
26:38.933,575616,/
26:39.731,575903,/
26:40.531,576191,f
26:41.386,576499,f
26:42.203,576793,f
26:43.053,577099,/
26:43.847,577385,/
26:44.639,577670,/
26:45.428,577954,/
26:46.228,578242,/
26:47.003,578521,f
26:47.853,578827,f
26:48.728,579142,f
26:49.547,579437,/
26:50.353,579727,/
26:51.136,580009,/
26:51.950,580302,/
26:52.744,580588,/
26:53.553,580879,/
26:54.392,581181,N
26:55.250,581490,f
26:56.092,581793,f
26:56.822,582056,f
26:57.639,582350,/
26:58.428,582634,/
26:59.231,582923,/
27:00.114,583241,/
27:00.953,583543,/
27:01.750,583830,/
27:02.464,584087,N
27:03.281,584381,f
27:04.072,584666,f
27:04.869,584953,/
27:05.719,585259,/
27:06.572,585566,/
27:07.386,585859,/
27:08.192,586149,/
27:08.981,586433,/
27:09.781,586721,/
27:10.517,586986,N
27:11.353,587287,f
27:12.289,587624,f
27:13.053,587899,f
27:13.867,588192,/
27:14.656,588476,/
27:15.467,588768,/
27:16.253,589051,/
27:17.044,589336,/
27:17.919,589651,/
27:18.314,589793,+
27:18.711,589936,N
27:19.494,590218,N
27:20.383,590538,f
27:21.125,590805,f
27:21.519,590947,+
27:21.914,591089,/
27:22.697,591371,/
27:23.567,591684,/
27:24.406,591986,/
27:25.211,592276,/
27:26.017,592566,/
27:26.803,592849,f
27:27.647,593153,f
27:28.378,593416,f
27:29.217,593718,/
27:30.072,594026,/
27:30.897,594323,/
27:31.719,594619,/
27:32.508,594903,/
27:33.311,595192,/
27:34.094,595474,f
27:34.956,595784,f
27:35.753,596071,/
27:36.578,596368,/
27:37.406,596666,/
27:38.203,596953,/
27:39.011,597244,/
27:39.786,597523,/
27:40.558,597801,f
27:41.447,598121,f
27:42.264,598415,f
27:43.075,598707,/
27:43.889,599000,/
27:44.706,599294,/
27:45.483,599574,/
27:46.258,599853,/
27:47.111,600160,/
27:47.944,600460,f
27:48.831,600779,f
27:49.575,601047,/
27:50.381,601337,/
27:51.175,601623,/
27:51.953,601903,/
27:52.772,602198,/
27:53.619,602503,/
27:54.436,602797,f
27:55.267,603096,f
27:56.142,603411,f
27:56.892,603681,f
27:57.664,603959,/
27:58.461,604246,/
27:59.303,604549,/
28:00.122,604844,/
28:00.958,605145,/
28:01.775,605439,/
28:02.539,605714,N
28:03.356,606008,f
28:04.119,606283,f
28:04.967,606588,/
28:05.794,606886,/
28:06.617,607182,/
28:07.444,607480,/
28:08.272,607778,/
28:09.053,608059,/
28:09.822,608336,/
28:10.644,608632,f
28:11.489,608936,f
28:12.372,609254,f
28:13.131,609527,/
28:13.956,609824,/
28:14.756,610112,/
28:15.525,610389,/
28:16.331,610679,/
28:17.169,610981,/
28:17.994,611278,/
28:18.833,611580,/
28:19.636,611869,f
28:20.469,612169,f
28:21.297,612467,f
28:22.025,612729,/
28:22.856,613028,/
28:23.669,613321,/
28:24.506,613622,/
28:25.339,613922,/
28:26.164,614219,/
28:26.942,614499,/
28:27.689,614768,f
28:28.539,615074,f
28:29.361,615370,f
28:30.183,615666,/
28:31.014,615965,/
28:31.853,616267,/
28:32.644,616552,/
28:33.411,616828,/
28:34.236,617125,/
28:35.050,617418,/
28:35.869,617713,f
28:36.744,618028,f
28:37.531,618311,/
28:38.344,618604,/
28:39.117,618882,/
28:39.917,619170,/
28:40.736,619465,/
28:41.550,619758,/
28:42.381,620057,f
28:43.189,620348,f
28:44.092,620673,f
28:44.814,620933,/
28:45.600,621216,/
28:46.408,621507,/
28:47.206,621794,/
28:48.056,622100,/
28:48.894,622402,/
28:49.722,622700,f
28:50.497,622979,f
28:51.283,623262,f
28:52.106,623558,/
28:52.908,623847,/
28:53.728,624142,/
28:54.567,624444,/
28:55.425,624753,/
28:56.222,625040,/
28:56.953,625303,N
28:57.778,625600,f
28:58.675,625923,f
28:59.406,626186,/
29:00.239,626486,/
29:01.094,626794,/
29:01.911,627088,/
29:02.681,627365,/
29:03.492,627657,/
29:04.297,627947,/
29:05.072,628226,f
29:05.925,628533,f
29:06.839,628862,f
29:07.594,629134,/
29:08.372,629414,/
29:09.169,629701,/
29:09.969,629989,/
29:10.758,630273,/
29:11.600,630576,/
29:12.436,630877,/
29:13.258,631173,f
29:14.053,631459,N
29:14.883,631758,f
29:15.664,632039,f
29:16.453,632323,/
29:17.261,632614,/
29:18.100,632916,/
29:18.964,633227,/
29:19.778,633520,/
29:20.553,633799,/
29:21.375,634095,/
29:22.128,634366,N
29:22.914,634649,f
29:23.814,634973,f
29:24.625,635265,f
29:25.461,635566,/
29:26.250,635850,/
29:27.058,636141,/
29:27.850,636426,/
29:28.631,636707,/
29:29.453,637003,/
29:30.286,637303,f
29:31.144,637612,f
29:32.014,637925,f
29:32.744,638188,/
29:33.544,638476,/
29:34.325,638757,/
29:35.150,639054,/
29:35.992,639357,/
29:36.847,639665,/
29:37.658,639957,/
29:38.453,640243,f
29:39.319,640555,f
29:40.036,640813,/
29:40.825,641097,/
29:41.656,641396,/
29:42.528,641710,/
29:43.347,642005,/
29:44.139,642290,/
29:44.961,642586,f
29:45.739,642866,f
29:46.519,643147,f
29:47.342,643443,/
29:48.197,643751,/
29:49.033,644052,/
29:49.833,644340,/
29:50.650,644634,/
29:51.442,644919,/
29:52.214,645197,f
29:53.042,645495,f
29:53.856,645788,f
29:54.714,646097,/
29:55.531,646391,/
29:56.339,646682,/
29:57.139,646970,/
29:57.908,647247,/
29:58.719,647539,/
29:59.544,647836,f
30:00.469,648169,f
30:01.228,648442,/
30:02.028,648730,/
30:02.839,649022,/
30:03.611,649300,/
30:04.389,649580,/
30:05.211,649876,/
